availability,stress
0,1.0
10,1.0
20,1.0
30,0.99
40,0.978
50,0.96
60,0.94
70,0.92
80,0.89
90,0.85
100,0.80
110,0.75
120,0.70
130,0.64
140,0.54
150,0.42
160,0.30
170,0.20
180,0.10
190,0.05
200,0.01
210,0.0
220,0.0
230,0.0
240,0.0
250,0.0
260,0.0
270,0.0
280,0.0
290,0.0
300,0.0
310,0.0