availability,stress
0,1.0
10,1.0
20,1.0
30,1.0
40,1.0
50,1.0
60,0.99
70,0.978
80,0.96
90,0.94
100,0.92
110,0.89
120,0.85
130,0.80
140,0.75
150,0.70
160,0.64
170,0.54
180,0.42
190,0.30
200,0.20
210,0.10
220,0.05
230,0.01
240,0.0
250,0.0
260,0.0
270,0.0
280,0.0
290,0.0
300,0.0
310,0.0