availability,stress
0,1.0
10,1.0
20,1.0
30,1.0
40,1.0
50,0.98
60,0.96
70,0.9
80,0.8
90,0.6
100,0.4
110,0.2
120,0.09
130,0.04
140,0.01
150,0.0
160,0.0
170,0.0
180,0.01
190,0.05
200,0.1
210,0.2
220,0.3
230,0.4
240,0.6
250,0.8
260,0.95
270,0.98
280,1.0
290,1.0
300,1.0
310,1.0